time,frequency,confidence
0.000,32.260,0.012728
0.004,32.387,0.033720
0.008,32.514,0.043464
0.012,32.510,0.071168
0.016,32.551,0.097784
0.020,32.582,0.090655
0.024,32.527,0.070634
0.028,32.502,0.072668
0.032,32.436,0.048756
0.036,32.368,0.012154
0.040,32.375,0.006963
0.044,32.590,0.012439
0.048,32.586,0.034304
0.052,33.005,0.048331
0.056,32.773,0.125906
0.060,32.837,0.330494
0.064,32.716,0.244828
0.068,32.252,0.205282
0.072,32.220,0.159039
0.076,32.203,0.084036
0.080,32.620,0.021512
0.084,36.000,0.039837
0.088,40.877,0.052568
0.092,45.526,0.035724
0.096,51.665,0.050597
0.100,57.765,0.118943
0.104,64.468,0.156893
0.108,74.437,0.118135
0.112,83.362,0.077626
0.116,83.092,0.095917
0.120,83.333,0.106466
0.124,82.919,0.195716
0.128,82.884,0.206804
0.132,83.039,0.247995
0.136,82.625,0.159905
0.140,81.852,0.086041
0.144,81.432,0.077150
0.148,82.190,0.084664
0.152,82.361,0.085601
0.156,82.612,0.106412
0.160,82.717,0.136819
0.164,83.582,0.114928
0.168,86.523,0.081055
0.172,91.722,0.087082
0.176,97.172,0.071963
0.180,101.715,0.048801
0.184,107.088,0.048841
0.188,114.301,0.071663
0.192,123.468,0.052543
0.196,128.239,0.057198
0.200,128.269,0.041611
0.204,128.191,0.085940
0.208,127.021,0.059916
0.212,124.282,0.096564
0.216,123.529,0.176191
0.220,122.857,0.159456
0.224,122.822,0.140040
0.228,123.504,0.078683
0.232,123.446,0.039109
0.236,123.658,0.032093
0.240,115.776,0.036816
0.244,105.218,0.036120
0.248,98.739,0.049740
0.252,88.632,0.045989
0.256,84.742,0.037988
0.260,84.726,0.109934
0.264,84.874,0.087895
0.268,84.948,0.042008
0.272,84.785,0.013518
0.276,84.629,0.013924
0.280,84.527,0.012469
0.284,84.498,0.013043
0.288,84.708,0.027361
0.292,84.823,0.034582
0.296,85.030,0.033241
0.300,85.053,0.022834
0.304,84.879,0.046506
0.308,84.908,0.080655
0.312,84.911,0.089250
0.316,84.780,0.077913
0.320,85.317,0.122377
0.324,85.272,0.156078
0.328,85.115,0.161042
0.332,85.063,0.126246
0.336,95.428,0.133839
0.340,103.735,0.100672
0.344,116.272,0.052609
0.348,130.216,0.058515
0.352,143.577,0.059519
0.356,159.154,0.059203
0.360,177.528,0.132740
0.364,199.682,0.067769
0.368,223.743,0.123832
0.372,253.791,0.265437
0.376,251.613,0.197667
0.380,251.397,0.470444
0.384,249.774,0.437591
0.388,251.302,0.519643
0.392,250.117,0.101168
0.396,249.206,0.048217
0.400,249.212,0.026087
0.404,250.192,0.012812
0.408,249.477,0.023977
0.412,249.131,0.017890
0.416,248.702,0.025489
0.420,248.323,0.037173
0.424,247.640,0.043195
0.428,246.232,0.042599
0.432,245.391,0.048409
0.436,244.403,0.078094
0.440,244.324,0.112174
0.444,244.059,0.100455
0.448,244.244,0.085689
0.452,243.761,0.092845
0.456,243.352,0.127205
0.460,242.570,0.137512
0.464,242.403,0.110457
0.468,242.590,0.093125
0.472,243.441,0.082559
0.476,243.904,0.077985
0.480,244.512,0.078376
0.484,245.300,0.096015
0.488,245.654,0.083214
0.492,245.706,0.054350
0.496,250.002,0.035910
0.500,245.147,0.025258
0.504,252.069,0.013049
0.508,277.053,0.044230
0.512,308.321,0.096510
0.516,335.289,0.111691
0.520,380.282,0.088246
0.524,423.175,0.079053
0.528,472.194,0.090215
0.532,472.101,0.158281
0.536,495.460,0.271238
0.540,496.676,0.495384
0.544,496.720,0.716060
0.548,496.632,0.826527
0.552,496.627,0.890083
0.556,496.943,0.917681
0.560,496.961,0.936536
0.564,496.959,0.946513
0.568,496.954,0.955644
0.572,496.716,0.962100
0.576,496.484,0.967184
0.580,496.200,0.971004
0.584,495.895,0.972408
0.588,495.518,0.972574
0.592,494.942,0.972448
0.596,494.386,0.970048
0.600,493.888,0.966998
0.604,493.523,0.963102
0.608,493.292,0.960330
0.612,493.222,0.960168
0.616,493.219,0.961635
0.620,493.238,0.963091
0.624,493.327,0.964399
0.628,493.488,0.966670
0.632,493.723,0.968669
0.636,494.083,0.970822
0.640,494.603,0.972651
0.644,495.095,0.973508
0.648,495.479,0.973274
0.652,495.709,0.972937
0.656,495.901,0.973009
0.660,496.024,0.973126
0.664,496.117,0.973068
0.668,496.156,0.973264
0.672,496.209,0.972931
0.676,496.317,0.971554
0.680,496.518,0.969576
0.684,496.779,0.967198
0.688,497.021,0.965425
0.692,497.262,0.963568
0.696,497.473,0.961836
0.700,497.606,0.960568
0.704,497.620,0.960447
0.708,497.496,0.962210
0.712,497.196,0.965120
0.716,496.716,0.967411
0.720,496.006,0.969642
0.724,495.098,0.970072
0.728,494.230,0.966354
0.732,493.508,0.959515
0.736,492.943,0.949556
0.740,492.463,0.943355
0.744,492.058,0.951290
0.748,491.739,0.955029
0.752,491.514,0.955976
0.756,491.318,0.955968
0.760,491.137,0.954684
0.764,490.940,0.952310
0.768,490.631,0.947971
0.772,490.631,0.944478
0.776,490.868,0.944095
0.780,491.063,0.942512
0.784,491.059,0.942444
0.788,490.875,0.945940
0.792,490.632,0.948250
0.796,490.801,0.953117
0.800,491.009,0.951590
0.804,491.296,0.943879
0.808,491.506,0.934891
0.812,491.716,0.926978
0.816,492.134,0.922989
0.820,492.826,0.918164
0.824,493.726,0.945395
0.828,494.618,0.958533
0.832,495.661,0.961856
0.836,496.829,0.958077
0.840,497.562,0.955624
0.844,497.848,0.955113
0.848,497.811,0.957076
0.852,497.494,0.962027
0.856,496.971,0.968113
0.860,496.308,0.974154
0.864,495.646,0.977195
0.868,494.866,0.976734
0.872,493.926,0.970698
0.876,492.993,0.954332
0.880,492.047,0.942720
0.884,491.251,0.958751
0.888,490.385,0.966903
0.892,489.496,0.966796
0.896,488.669,0.958147
0.900,487.987,0.945690
0.904,487.226,0.927758
0.908,486.423,0.941231
0.912,485.693,0.949179
0.916,485.280,0.954767
0.920,485.190,0.958700
0.924,485.561,0.957365
0.928,486.325,0.947233
0.932,487.079,0.931237
0.936,487.845,0.947702
0.940,488.645,0.960165
0.944,489.445,0.967896
0.948,490.313,0.970011
0.952,491.107,0.965664
0.956,491.955,0.954470
0.960,492.942,0.950553
0.964,493.944,0.963482
0.968,494.913,0.968808
0.972,495.835,0.968924
0.976,496.666,0.966739
0.980,497.141,0.964761
0.984,497.197,0.964629
0.988,497.029,0.965388
0.992,496.719,0.968704
0.996,496.438,0.970722
1.000,496.097,0.972208
1.004,495.771,0.972862
1.008,495.536,0.973285
1.012,495.333,0.972762
1.016,495.152,0.971550
1.020,494.953,0.969446
1.024,494.780,0.966901
1.028,494.643,0.965402
1.032,494.588,0.964385
1.036,494.599,0.963663
1.040,494.676,0.964166
1.044,494.849,0.965994
1.048,495.169,0.968697
1.052,495.449,0.970239
1.056,495.487,0.970721
1.060,495.398,0.971244
1.064,495.223,0.971319
1.068,495.042,0.969776
1.072,494.919,0.965741
1.076,494.836,0.959584
1.080,494.831,0.952375
1.084,495.020,0.943747
1.088,495.283,0.934810
1.092,495.458,0.923993
1.096,495.544,0.914965
1.100,495.525,0.914738
1.104,495.322,0.919683
1.108,494.813,0.924407
1.112,494.177,0.925470
1.116,493.606,0.920069
1.120,493.427,0.910185
1.124,493.626,0.898214
1.128,493.874,0.884161
1.132,494.245,0.848772
1.136,494.778,0.799470
1.140,495.396,0.721156
1.144,495.615,0.727650
1.148,495.593,0.714713
1.152,495.472,0.784196
1.156,495.258,0.876721
1.160,451.112,0.914398
1.164,399.909,0.919634
1.168,339.648,0.920590
1.172,320.907,0.875857
1.176,272.427,0.649428
1.180,247.943,0.782066
1.184,247.719,0.841554
1.188,247.556,0.878305
1.192,247.477,0.900158
1.196,247.415,0.915063
1.200,247.181,0.921846
1.204,246.959,0.924117
1.208,246.880,0.925116
1.212,246.956,0.927909
1.216,246.855,0.923198
1.220,246.655,0.914381
1.224,246.335,0.911190
1.228,246.075,0.924431
1.232,245.870,0.933277
1.236,245.668,0.939240
1.240,245.473,0.943615
1.244,245.384,0.946443
1.248,245.380,0.948408
1.252,245.426,0.950902
1.256,245.549,0.950662
1.260,245.798,0.945094
1.264,246.096,0.936781
1.268,246.439,0.918313
1.272,246.836,0.920031
1.276,247.272,0.931892
1.280,247.605,0.937540
1.284,247.855,0.939071
1.288,248.047,0.939927
1.292,248.128,0.941349
1.296,248.130,0.942998
1.300,248.123,0.944752
1.304,248.096,0.946253
1.308,247.971,0.947380
1.312,247.759,0.947141
1.316,247.489,0.944228
1.320,247.193,0.937945
1.324,246.866,0.928564
1.328,246.551,0.913146
1.332,246.211,0.919948
1.336,245.921,0.933697
1.340,245.731,0.942378
1.344,245.624,0.946500
1.348,245.619,0.947781
1.352,245.652,0.947115
1.356,245.717,0.944606
1.360,245.850,0.938275
1.364,246.016,0.929873
1.368,246.127,0.922330
1.372,246.258,0.915146
1.376,246.392,0.906663
1.380,246.581,0.901910
1.384,246.737,0.904795
1.388,246.895,0.906271
1.392,247.033,0.905609
1.396,247.126,0.901872
1.400,247.108,0.891926
1.404,246.988,0.877666
1.408,246.853,0.859085
1.412,246.675,0.837550
1.416,246.669,0.823498
1.420,246.715,0.807908
1.424,246.920,0.778641
1.428,247.462,0.690481
1.432,247.901,0.569292
1.436,248.270,0.555054
1.440,248.554,0.552305
1.444,248.566,0.312988
1.448,248.806,0.245536
1.452,269.432,0.504107
1.456,293.091,0.648605
1.460,292.506,0.714020
1.464,292.259,0.783415
1.468,292.250,0.840980
1.472,292.280,0.884697
1.476,292.394,0.909186
1.480,292.548,0.923445
1.484,292.857,0.926648
1.488,293.057,0.932857
1.492,293.328,0.952513
1.496,293.287,0.953433
1.500,293.420,0.960911
1.504,293.316,0.957765
1.508,293.330,0.961194
1.512,293.391,0.962070
1.516,293.391,0.960747
1.520,293.385,0.963529
1.524,293.456,0.963202
1.528,293.367,0.962546
1.532,293.419,0.965179
1.536,293.492,0.964895
1.540,293.555,0.966484
1.544,293.538,0.965519
1.548,293.639,0.966639
1.552,293.574,0.962559
1.556,293.512,0.964995
1.560,293.529,0.962420
1.564,293.392,0.956676
1.568,293.409,0.959797
1.572,293.483,0.960498
1.576,293.428,0.960474
1.580,293.313,0.957253
1.584,293.257,0.954430
1.588,293.183,0.955822
1.592,293.352,0.961520
1.596,293.380,0.960389
1.600,293.316,0.958343
1.604,293.237,0.956368
1.608,293.229,0.953023
1.612,293.245,0.957016
1.616,293.270,0.952474
1.620,293.110,0.942550
1.624,292.915,0.926591
1.628,292.738,0.906095
1.632,292.405,0.895964
1.636,292.122,0.878104
1.640,292.072,0.852561
1.644,291.283,0.825580
1.648,290.508,0.783750
1.652,290.191,0.742365
1.656,290.129,0.735496
1.660,291.080,0.788506
1.664,291.454,0.785555
1.668,291.647,0.769058
1.672,292.428,0.724430
1.676,292.894,0.697772
1.680,293.356,0.675768
1.684,294.164,0.600493
1.688,320.749,0.570939
1.692,368.911,0.722395
1.696,369.672,0.741804
1.700,369.846,0.819720
1.704,369.902,0.847691
1.708,370.084,0.835660
1.712,371.027,0.874031
1.716,370.985,0.892176
1.720,371.230,0.893703
1.724,371.410,0.889261
1.728,371.935,0.910675
1.732,371.859,0.905701
1.736,372.307,0.902606
1.740,372.611,0.911256
1.744,372.701,0.918111
1.748,372.798,0.915210
1.752,372.723,0.918071
1.756,372.762,0.920403
1.760,372.530,0.926773
1.764,372.605,0.926121
1.768,372.573,0.927662
1.772,372.650,0.924701
1.776,372.706,0.919429
1.780,372.837,0.916061
1.784,372.739,0.923985
1.788,372.815,0.914328
1.792,372.709,0.919193
1.796,372.640,0.919544
1.800,372.472,0.920072
1.804,372.457,0.920142
1.808,372.322,0.925264
1.812,372.276,0.920865
1.816,372.182,0.916463
1.820,372.271,0.921493
1.824,372.025,0.920162
1.828,372.370,0.916959
1.832,372.269,0.918461
1.836,372.231,0.922228
1.840,371.980,0.916218
1.844,371.966,0.912875
1.848,371.322,0.904064
1.852,371.641,0.883690
1.856,371.651,0.848937
1.860,372.035,0.821771
1.864,372.561,0.742529
1.868,373.615,0.662175
1.872,374.007,0.648193
1.876,374.231,0.688156
1.880,401.760,0.655479
1.884,460.392,0.611311
1.888,495.476,0.417977
1.892,496.519,0.655076
1.896,496.381,0.781537
1.900,497.235,0.834503
1.904,498.003,0.857961
1.908,498.098,0.877863
1.912,499.043,0.892354
1.916,499.385,0.910891
1.920,499.488,0.921879
1.924,499.573,0.926494
1.928,499.583,0.930276
1.932,499.617,0.931523
1.936,499.488,0.930665
1.940,499.472,0.930358
1.944,499.345,0.930711
1.948,499.294,0.931373
1.952,499.161,0.929694
1.956,499.172,0.931584
1.960,498.995,0.928312
1.964,499.037,0.931627
1.968,498.914,0.929776
1.972,498.872,0.930496
1.976,498.769,0.932333
1.980,498.809,0.931757
1.984,498.698,0.935247
1.988,498.734,0.935891
1.992,498.654,0.938151
1.996,498.582,0.941949
2.000,498.583,0.942912
2.004,498.500,0.945677
2.008,498.461,0.946572
2.012,498.382,0.949770
2.016,498.281,0.951578
2.020,498.138,0.954783
2.024,498.059,0.955267
2.028,497.980,0.956240
2.032,497.917,0.955355
2.036,497.859,0.956038
2.040,497.786,0.955490
2.044,497.776,0.954064
2.048,497.765,0.950996
2.052,497.753,0.948483
2.056,497.686,0.945197
2.060,497.605,0.939851
2.064,497.571,0.932482
2.068,497.665,0.917899
2.072,497.809,0.902122
2.076,498.241,0.876502
2.080,498.338,0.841049
2.084,498.267,0.798269
2.088,497.762,0.648986
2.092,497.277,0.534076
2.096,495.877,0.408017
2.100,547.451,0.270577
2.104,581.810,0.419529
2.108,583.428,0.670903
2.112,584.713,0.743753
2.116,585.529,0.827328
2.120,586.130,0.856071
2.124,586.466,0.886964
2.128,586.716,0.919477
2.132,586.906,0.933742
2.136,586.820,0.938330
2.140,586.841,0.947776
2.144,586.756,0.948758
2.148,586.674,0.947052
2.152,586.590,0.945206
2.156,586.580,0.943362
2.160,586.536,0.946131
2.164,586.575,0.951454
2.168,586.584,0.951455
2.172,586.532,0.952479
2.176,586.673,0.957901
2.180,586.669,0.956271
2.184,586.779,0.955940
2.188,587.068,0.963814
2.192,587.224,0.966067
2.196,587.518,0.968660
2.200,587.916,0.972734
2.204,588.067,0.975575
2.208,588.389,0.976978
2.212,588.674,0.979029
2.216,588.847,0.980740
2.220,588.911,0.982566
2.224,589.235,0.983656
2.228,589.587,0.984930
2.232,589.784,0.985741
2.236,589.992,0.984095
2.240,590.346,0.982623
2.244,590.682,0.982048
2.248,590.931,0.978920
2.252,591.312,0.974588
2.256,591.578,0.973973
2.260,591.719,0.970292
2.264,592.141,0.963614
2.268,591.874,0.964895
2.272,591.683,0.969825
2.276,591.169,0.973802
2.280,590.682,0.979282
2.284,590.326,0.982596
2.288,589.759,0.985176
2.292,589.265,0.987175
2.296,588.572,0.987532
2.300,588.073,0.985881
2.304,587.569,0.982021
2.308,587.235,0.981067
2.312,586.979,0.974719
2.316,587.116,0.966981
2.320,587.028,0.954145
2.324,586.879,0.938166
2.328,586.043,0.904088
2.332,584.895,0.857461
2.336,581.645,0.807746
2.340,577.725,0.789496
2.344,575.279,0.856964
2.348,574.315,0.816731
2.352,572.650,0.763738
2.356,570.790,0.670628
2.360,566.363,0.609244
2.364,564.628,0.635530
2.368,565.502,0.664409
2.372,567.745,0.730695
2.376,568.581,0.854695
2.380,568.218,0.893328
2.384,567.241,0.887268
2.388,565.100,0.894005
2.392,562.659,0.892388
2.396,559.738,0.887382
2.400,558.125,0.912039
2.404,557.355,0.930865
2.408,557.346,0.938457
2.412,558.019,0.937052
2.416,558.038,0.935028
2.420,558.177,0.938205
2.424,557.778,0.938073
2.428,557.552,0.933316
2.432,557.406,0.934596
2.436,558.144,0.927340
2.440,559.047,0.923053
2.444,560.063,0.904684
2.448,560.803,0.909073
2.452,561.244,0.913889
2.456,561.068,0.912429
2.460,560.646,0.903866
2.464,560.686,0.897504
2.468,560.917,0.899121
2.472,561.395,0.906034
2.476,562.136,0.921806
2.480,562.863,0.924840
2.484,563.023,0.925896
2.488,562.368,0.919930
2.492,561.371,0.908576
2.496,560.318,0.900755
2.500,559.398,0.917827
2.504,558.779,0.922836
2.508,558.390,0.926679
2.512,558.521,0.924579
2.516,558.220,0.922160
2.520,558.086,0.921274
2.524,557.278,0.913245
2.528,556.650,0.877825
2.532,556.152,0.813640
2.536,513.491,0.712665
2.540,445.685,0.568872
2.544,394.399,0.409397
2.548,372.288,0.496216
2.552,372.780,0.518161
2.556,373.276,0.523653
2.560,373.217,0.577540
2.564,373.247,0.650420
2.568,374.011,0.559834
2.572,375.117,0.650494
2.576,375.337,0.704395
2.580,375.758,0.730811
2.584,375.466,0.758407
2.588,375.186,0.761086
2.592,374.917,0.756173
2.596,374.777,0.759751
2.600,374.760,0.776038
2.604,374.762,0.766500
2.608,374.815,0.788448
2.612,375.067,0.829149
2.616,375.277,0.807194
2.620,375.282,0.797497
2.624,375.311,0.785341
2.628,375.486,0.796604
2.632,375.205,0.783113
2.636,374.941,0.771851
2.640,374.611,0.720869
2.644,374.485,0.719710
2.648,374.613,0.716729
2.652,374.652,0.715598
2.656,374.485,0.676985
2.660,374.488,0.692959
2.664,335.848,0.668332
2.668,301.127,0.656681
2.672,271.172,0.709555
2.676,241.253,0.699299
2.680,206.582,0.674924
2.684,186.542,0.673714
2.688,186.619,0.671628
2.692,186.430,0.682539
2.696,186.427,0.678693
2.700,186.448,0.680264
2.704,186.457,0.676974
2.708,186.297,0.742708
2.712,186.299,0.757513
2.716,186.552,0.762240
2.720,186.465,0.768039
2.724,186.320,0.775597
2.728,186.320,0.727402
2.732,186.451,0.698704
2.736,186.059,0.685116
2.740,185.857,0.632579
2.744,185.664,0.548523
2.748,185.706,0.389811
2.752,185.589,0.248053
2.756,209.868,0.132319
2.760,237.211,0.356420
2.764,237.065,0.493760
2.768,236.872,0.615543
2.772,237.413,0.749911
2.776,237.300,0.810069
2.780,236.992,0.827993
2.784,236.983,0.861930
2.788,236.989,0.890580
2.792,237.148,0.907325
2.796,237.110,0.913292
2.800,237.070,0.915513
2.804,236.971,0.920710
2.808,237.061,0.932593
2.812,237.102,0.941599
2.816,237.113,0.944606
2.820,237.104,0.947340
2.824,237.138,0.948644
2.828,237.135,0.947523
2.832,237.063,0.947323
2.836,236.968,0.944590
2.840,236.773,0.943684
2.844,236.597,0.940482
2.848,236.518,0.939438
2.852,236.511,0.937200
2.856,236.584,0.943001
2.860,236.636,0.944006
2.864,236.677,0.943195
2.868,236.668,0.945071
2.872,236.594,0.941351
2.876,236.501,0.941275
2.880,236.386,0.936216
2.884,236.370,0.937364
2.888,236.277,0.937499
2.892,236.359,0.931541
2.896,236.466,0.939986
2.900,236.453,0.938230
2.904,236.371,0.934979
2.908,236.236,0.922034
2.912,235.914,0.891845
2.916,235.744,0.862914
2.920,235.398,0.848166
2.924,235.424,0.792798
2.928,235.243,0.755738
2.932,235.185,0.685586
2.936,235.300,0.519845
2.940,235.940,0.404650
2.944,259.764,0.167780
2.948,292.052,0.165047
2.952,339.019,0.241731
2.956,384.757,0.280085
2.960,385.407,0.291408
2.964,412.655,0.294338
2.968,472.444,0.348779
2.972,472.194,0.472668
2.976,473.853,0.529983
2.980,474.525,0.454629
2.984,476.088,0.432220
2.988,476.243,0.345731
2.992,473.244,0.284936
2.996,474.970,0.194611
3.000,421.994,0.246386
3.004,357.570,0.543136
3.008,325.945,0.674310
3.012,327.351,0.807632
3.016,327.892,0.869321
3.020,328.548,0.887676
3.024,329.174,0.924589
3.028,329.477,0.948860
3.032,329.794,0.958742
3.036,330.104,0.966662
3.040,330.244,0.971469
3.044,330.157,0.970112
3.048,329.964,0.968368
3.052,329.796,0.963176
3.056,329.553,0.954508
3.060,329.273,0.948103
3.064,329.086,0.942311
3.068,328.972,0.940518
3.072,328.704,0.930009
3.076,328.422,0.936886
3.080,328.213,0.942620
3.084,327.964,0.950851
3.088,328.047,0.951987
3.092,328.162,0.947847
3.096,328.067,0.948382
3.100,328.260,0.948558
3.104,328.437,0.944351
3.108,328.430,0.942366
3.112,328.610,0.938639
3.116,328.662,0.933926
3.120,328.755,0.934121
3.124,328.943,0.941571
3.128,329.186,0.948153
3.132,329.364,0.952504
3.136,329.560,0.958113
3.140,329.766,0.961116
3.144,330.006,0.963366
3.148,330.025,0.962916
3.152,330.112,0.964299
3.156,330.085,0.963086
3.160,329.906,0.959436
3.164,329.806,0.955138
3.168,329.714,0.949082
3.172,329.645,0.941503
3.176,329.654,0.932875
3.180,329.697,0.926354
3.184,329.732,0.920699
3.188,330.003,0.904747
3.192,330.079,0.894402
3.196,329.785,0.885343
3.200,329.214,0.855608
3.204,328.621,0.852452
3.208,327.766,0.884422
3.212,327.877,0.894083
3.216,327.790,0.844328
3.220,327.783,0.701015
3.224,327.962,0.501342
3.228,291.554,0.774909
3.232,292.104,0.875203
3.236,292.315,0.905197
3.240,292.542,0.911089
3.244,292.636,0.921003
3.248,292.809,0.917011
3.252,292.966,0.922235
3.256,293.203,0.939902
3.260,293.397,0.953383
3.264,293.690,0.963235
3.268,293.771,0.963041
3.272,293.766,0.964437
3.276,293.840,0.966362
3.280,293.782,0.965083
3.284,293.630,0.959533
3.288,293.470,0.953375
3.292,293.673,0.956529
3.296,293.512,0.946002
3.300,293.514,0.942525
3.304,293.485,0.943043
3.308,293.482,0.940500
3.312,293.243,0.930104
3.316,293.264,0.930374
3.320,293.222,0.922012
3.324,293.250,0.919770
3.328,293.233,0.912068
3.332,293.132,0.907512
3.336,293.222,0.903460
3.340,293.369,0.886705
3.344,293.773,0.877994
3.348,294.673,0.859558
3.352,294.701,0.786350
3.356,294.650,0.622291
3.360,293.948,0.504063
3.364,292.115,0.377389
3.368,271.093,0.311749
3.372,271.518,0.421348
3.376,275.569,0.509720
3.380,276.097,0.608907
3.384,276.151,0.713435
3.388,277.453,0.747636
3.392,277.688,0.851728
3.396,278.043,0.860925
3.400,278.269,0.904606
3.404,278.589,0.925052
3.408,278.722,0.925762
3.412,278.922,0.920806
3.416,279.259,0.911131
3.420,279.476,0.911547
3.424,279.388,0.921988
3.428,279.492,0.917921
3.432,279.251,0.928703
3.436,279.348,0.929743
3.440,279.308,0.934436
3.444,279.281,0.933680
3.448,279.198,0.937571
3.452,279.171,0.936671
3.456,279.080,0.942181
3.460,279.315,0.935052
3.464,279.408,0.924848
3.468,279.559,0.922516
3.472,279.644,0.923587
3.476,279.539,0.927391
3.480,279.390,0.935245
